Frequency (GHz)	SDeltaP(6PORT ORIGINAL CRLH N8,2,1,5,1) (Deg) : 6PORT ORIGINAL CRLH N8	SDeltaP(6PORT ORIGINAL CRLH N8,3,1,5,1) (Deg) : 6PORT ORIGINAL CRLH N8	SDeltaP(6PORT ORIGINAL CRLH N8,5,1,5,1) (Deg) : 6PORT ORIGINAL CRLH N8	SDeltaP(6PORT ORIGINAL CRLH N8,6,1,5,1) (Deg) : 6PORT ORIGINAL CRLH N8
0.5	13.5691	7.1698	0	-0.610721
0.51	42.304	18.2676	0	7.68605
0.52	60.4567	21.5424	0	19.4726
0.53	77.5985	22.1414	0	32.4743
0.54	97.0638	21.3308	0	44.8836
0.55	120.991	26.1996	0	54.2188
0.56	142.388	67.4773	0	61.6239
0.57	157.014	125.235	0	69.5307
0.58	168.009	140.97	0	78.4492
0.59	178.305	146.711	0	87.7769
0.6	190.041	149.834	0	96.8719
0.61	205.386	152.023	0	105.532
0.62	225.539	153.824	0	114.035
0.63	247.433	155.32	0	122.625
0.64	265.966	156.378	0	130.859
0.65	280.095	156.968	0	137.98
0.66	291.102	157.261	0	143.756
0.67	300.069	157.524	0	148.465
0.68	307.727	158.058	0	152.518
0.69	314.717	159.244	0	156.304
0.7	321.748	161.644	0	160.203
0.71	329.775	166.177	0	164.692
0.72	340.398	174.537	0	170.621
0.73	357.31	190.536	0	180.267
0.74	392.977	226.35	0	202.365
0.75	466.374	299.18	0	236.319
0.76	519.601	346.69	0	186.551
0.77	562.996	370.518	0	179.534
0.78	626.94	387.676	0	182.88
0.79	680.281	413.313	0	187.131
0.8	704.307	490.558	0	190.97
0.81	716.049	527.091	0	194.117
0.82	722.508	534.559	0	196.68
0.83	726.592	536.245	0	198.941
0.84	729.714	536.418	0	201.159
0.85	732.549	536.265	0	203.496
0.86	735.396	536.146	0	206.026
0.87	738.378	536.141	0	208.777
0.88	741.549	536.24	0	211.761
0.89	744.942	536.412	0	214.987
0.9	748.582	536.629	0	218.464
0.91	752.501	536.867	0	222.206
0.92	756.732	537.11	0	226.227
0.93	761.312	537.35	0	230.539
0.94	766.273	537.58	0	235.149
0.95	771.642	537.797	0	240.056
0.96	777.425	538	0	245.248
0.97	783.604	538.19	0	250.695
0.98	790.126	538.365	0	256.355
0.99	796.901	538.528	0	262.164
1	803.806	538.679	0	268.046
1.01	810.7	538.818	0	273.915
1.02	817.445	538.948	0	279.684
1.03	823.921	539.068	0	285.272
1.04	830.039	539.18	0	290.611
1.05	835.747	539.285	0	295.656
1.06	841.021	539.383	0	300.38
1.07	845.864	539.475	0	304.773
1.08	850.294	539.56	0	308.841
1.09	854.34	539.64	0	312.598
1.1	858.036	539.713	0	316.066
1.11	861.415	539.779	0	319.268
1.12	864.512	539.837	0	322.228
1.13	867.358	539.887	0	324.97
1.14	869.981	539.925	0	327.514
1.15	872.404	539.949	0	329.882
1.16	874.65	539.957	0	332.091
1.17	876.736	539.945	0	334.157
1.18	878.679	539.909	0	336.094
1.19	880.49	539.843	0	337.913
1.2	882.181	539.743	0	339.625
1.21	883.763	539.604	0	341.24
1.22	885.245	539.424	0	342.767
1.23	886.639	539.202	0	344.215
1.24	887.961	538.946	0	345.593
1.25	889.231	538.672	0	346.916
1.26	890.483	538.412	0	348.199
1.27	891.76	538.219	0	349.463
1.28	893.126	538.176	0	350.733
1.29	894.668	538.415	0	352.04
1.3	896.522	539.176	0	353.415
1.31	898.946	541.06	0	354.897
1.32	902.669	547.128	0	356.532
1.33	912.622	685.377	0	358.365
1.34	1071.93	716.711	0	360.102
1.35	1095.21	731.988	0	301.867
1.36	1217.52	852.619	0	325.261
1.37	1249.15	883.166	0	352.845
1.38	1256.06	889.134	0	358.066
1.39	1259.89	892.071	0	360.87
1.4	1262.7	894.004	0	362.958
1.41	1265.03	895.442	0	364.735
1.42	1267.08	896.575	0	366.346
1.43	1268.94	897.491	0	367.856
1.44	1270.68	898.239	0	369.301
1.45	1272.31	898.85	0	370.703
1.46	1273.88	899.348	0	372.077
1.47	1275.4	899.752	0	373.437
1.48	1276.88	900.076	0	374.792
1.49	1278.33	900.333	0	376.15
1.5	1279.78	900.534	0	377.519
1.51	1281.22	900.689	0	378.905
1.52	1282.68	900.804	0	380.317
1.53	1284.14	900.888	0	381.758
1.54	1285.64	900.945	0	383.237
1.55	1287.16	900.98	0	384.758
1.56	1288.72	900.997	0	386.327
1.57	1290.32	900.999	0	387.951
1.58	1291.97	900.99	0	389.634
1.59	1293.68	900.97	0	391.383
1.6	1295.45	900.943	0	393.204
1.61	1297.28	900.909	0	395.102
1.62	1299.19	900.869	0	397.084
1.63	1301.17	900.826	0	399.155
1.64	1303.24	900.779	0	401.321
1.65	1305.4	900.729	0	403.586
1.66	1307.65	900.676	0	405.957
1.67	1309.99	900.621	0	408.436
1.68	1312.44	900.565	0	411.027
1.69	1314.98	900.507	0	413.732
1.7	1317.64	900.448	0	416.552
1.71	1320.4	900.388	0	419.483
1.72	1323.26	900.326	0	422.525
1.73	1326.23	900.263	0	425.669
1.74	1329.29	900.199	0	428.91
1.75	1332.44	900.134	0	432.235
1.76	1335.66	900.068	0	435.634
1.77	1338.95	900	0	439.091
1.78	1342.28	899.932	0	442.59
1.79	1345.64	899.862	0	446.115
1.8	1349.01	899.79	0	449.646
1.81	1352.37	899.717	0	453.167
1.82	1355.7	899.643	0	456.658
1.83	1358.98	899.567	0	460.104
1.84	1362.19	899.489	0	463.489
1.85	1365.31	899.41	0	466.799
1.86	1368.35	899.328	0	470.021
1.87	1371.28	899.245	0	473.146
1.88	1374.11	899.16	0	476.166
1.89	1376.82	899.072	0	479.076
1.9	1379.41	898.983	0	481.872
1.91	1381.9	898.891	0	484.552
1.92	1384.27	898.798	0	487.116
1.93	1386.53	898.702	0	489.565
1.94	1388.69	898.603	0	491.903
1.95	1390.75	898.503	0	494.132
1.96	1392.7	898.401	0	496.257
1.97	1394.57	898.298	0	498.283
1.98	1396.35	898.193	0	500.214
1.99	1398.05	898.088	0	502.055
2	1399.68	897.982	0	503.812
2.01	1401.23	897.877	0	505.491
2.02	1402.72	897.774	0	507.095
2.03	1404.14	897.673	0	508.632
2.04	1405.52	897.576	0	510.104
2.05	1406.84	897.485	0	511.518
2.06	1408.11	897.402	0	512.879
2.07	1409.34	897.33	0	514.19
2.08	1410.54	897.272	0	515.457
2.09	1411.71	897.231	0	516.685
2.1	1412.86	897.212	0	517.877
2.11	1413.99	897.219	0	519.04
2.12	1415.11	897.261	0	520.178
2.13	1416.23	897.343	0	521.296
2.14	1417.36	897.475	0	522.401
2.15	1418.5	897.668	0	523.498
2.16	1419.68	897.932	0	524.595
2.17	1420.9	898.285	0	525.699
2.18	1422.18	898.743	0	526.821
2.19	1423.53	899.328	0	527.971
2.2	1425	900.067	0	529.164
2.21	1426.6	900.994	0	530.418
2.22	1428.37	902.151	0	531.757
2.23	1430.38	903.596	0	533.217
2.24	1432.7	905.409	0	534.846
2.25	1435.45	907.704	0	536.723
2.26	1438.8	910.662	0	538.973
2.27	1443.07	914.581	0	541.822
2.28	1448.8	920.006	0	545.695
2.29	1457.11	928.029	0	551.486
2.3	1470.45	941.068	0	561.227
2.31	1493.97	964.239	0	579.177
2.32	1530.96	1000.76	0	606.156
2.33	1565.31	1034.38	0	617.09
2.34	1586.9	1054.78	0	579.803
2.35	1601.52	1067.39	0	548.643
2.36	1614.07	1076.46	0	541.05
2.37	1627.73	1083.91	0	539.539
2.38	1645.77	1090.65	0	539.776
2.39	1671.64	1097.22	0	540.636
2.4	1702.99	1104	0	541.751
2.41	1729.11	1111.39	0	542.982
2.42	1746.39	1119.86	0	544.265
2.43	1757.75	1130.06	0	545.571
2.44	1765.74	1142.82	0	546.884
2.45	1771.78	1158.7	0	548.192
2.46	1776.57	1177.03	0	549.488
2.47	1780.53	1195.26	0	550.768
2.48	1783.88	1210.64	0	552.025
2.49	1786.76	1222.29	0	553.258
2.5	1789.26	1230.7	0	554.464
2.51	1791.45	1236.7	0	555.643
2.52	1793.37	1241.01	0	556.797
2.53	1795.06	1244.1	0	557.929
2.54	1796.56	1246.32	0	559.042
2.55	1797.89	1247.91	0	560.142
2.56	1799.08	1249.03	0	561.235
2.57	1800.16	1249.8	0	562.326
2.58	1801.15	1250.31	0	563.423
2.59	1802.06	1250.63	0	564.53
2.6	1802.91	1250.81	0	565.654
2.61	1803.71	1250.88	0	566.799
2.62	1804.48	1250.87	0	567.971
2.63	1805.23	1250.8	0	569.173
2.64	1805.97	1250.69	0	570.41
2.65	1806.69	1250.56	0	571.684
2.66	1807.41	1250.4	0	572.999
2.67	1808.14	1250.23	0	574.358
2.68	1808.87	1250.05	0	575.762
2.69	1809.61	1249.86	0	577.213
2.7	1810.36	1249.68	0	578.715
2.71	1811.13	1249.49	0	580.267
2.72	1811.92	1249.3	0	581.873
2.73	1812.72	1249.11	0	583.531
2.74	1813.55	1248.93	0	585.244
2.75	1814.41	1248.74	0	587.012
2.76	1815.29	1248.55	0	588.834
2.77	1816.2	1248.37	0	590.711
2.78	1817.15	1248.19	0	592.641
2.79	1818.13	1248	0	594.624
2.8	1819.16	1247.82	0	596.658
2.81	1820.22	1247.63	0	598.74
2.82	1821.33	1247.45	0	600.868
2.83	1822.5	1247.26	0	603.038
2.84	1823.71	1247.07	0	605.247
2.85	1824.99	1246.88	0	607.49
2.86	1826.33	1246.68	0	609.763
2.87	1827.74	1246.49	0	612.061
2.88	1829.23	1246.29	0	614.379
2.89	1830.79	1246.09	0	616.711
2.9	1832.45	1245.89	0	619.053
2.91	1834.19	1245.68	0	621.4
2.92	1836.03	1245.47	0	623.747
2.93	1837.97	1245.26	0	626.09
2.94	1840.01	1245.05	0	628.426
2.95	1842.16	1244.83	0	630.75
2.96	1844.41	1244.62	0	633.061
2.97	1846.76	1244.39	0	635.357
2.98	1849.21	1244.17	0	637.636
2.99	1851.76	1243.94	0	639.896
3	1854.38	1243.71	0	642.137
